Time,AGPnorm,Energy,Entropy
0,0,1,-1.25334061961758e-17
99.9999999999986,3.61293854985465e-05,0.999999999999529,0.00149116150387476
199.999999999993,0.00334737608103309,0.999999999998676,0.00243843356300733
300,0.00835973605555287,1.00000000000055,0.00423180892594882
400.000000000022,0.0117884263387151,0.999999999998563,0.00716994403811108
500.000000000045,0.0141028359663279,0.999999999999589,0.00974440075772309
600.000000000068,0.0198009882689299,0.99999999999999,0.0133948596090035
700.000000000091,0.0248319598219033,0.999999999998397,0.0172094149596417
800.000000000113,0.0318412386277252,1.00000000000061,0.0211688681845846
900.000000000136,0.0394233043759655,0.999999999998798,0.0259000716269293
1000.00000000016,0.0453674381109688,0.999999999999048,0.0305944919776673
1100.0000000001,0.0541907143257564,1.00000000000048,0.0357141298353683
1200,0.0641576459556904,0.999999999998333,0.0412952652197168
1299.99999999991,0.0733503476249874,1.00000000000034,0.0469863429580297
1399.99999999982,0.0828087804591236,0.999999999999148,0.0531543925787223
1499.99999999973,0.092336486469104,0.99999999999862,0.059577012542097
1599.99999999964,0.103819059742012,1.0000000000009,0.0662954059601075
1699.99999999955,0.116161786175377,0.999999999998383,0.0736013395842351
1799.99999999946,0.126654684500399,0.999999999999754,0.0811288891402319
1899.99999999937,0.137512476707304,0.999999999999651,0.0890124517744224
1999.99999999928,0.149870341824465,0.999999999998441,0.0975152748656765
2099.99999999919,0.162631514491316,1.00000000000103,0.106475370979245
2199.99999999909,0.175185306204734,0.999999999998514,0.116156588629098
2299.999999999,0.186248611474094,0.999999999999171,0.126406568272333
2399.99999999891,0.198153720903599,1.00000000000042,0.137373780129877
2499.99999999882,0.211718947323646,0.99999999999905,0.149702919445397
2599.99999999873,0.22440075066345,1.00000000000293,0.163207967843041
2699.99999999864,0.235918818709361,1.00000000000525,0.178241856634601
2799.99999999855,0.246568123872947,1.00000000001691,0.194848037952024
2899.99999999846,0.260857636924854,1.00000000003786,0.212782534100151
2999.99999999837,0.272176317828404,1.00000000006827,0.231945640817268
3099.99999999828,0.287604667590993,1.00000000011437,0.251265789761495
3199.99999999819,0.307897535031784,1.00000000016794,0.270310699427359
3299.99999999809,0.328541957150124,1.00000000022809,0.289263299063121
3399.999999998,0.379150387460533,1.00000000028313,0.307734887612026
3499.99999999791,0.441177197961088,1.00000000036137,0.325882617977606
3599.99999999782,0.53951762381409,1.00000000043257,0.343299260279089
3699.99999999773,0.699195948792359,1.00000000049268,0.359743561693788
3799.99999999764,0.90552629495323,1.00000000056182,0.376165317101711
3899.99999999755,1.20990002419462,1.00000000065389,0.391517994816481
3999.99999999746,1.61321402598453,1.00000000069613,0.406124891135351
4099.99999999738,2.12575710679284,1.00000000077476,0.420182210575936
4199.99999999775,2.79369051463694,1.00000000085013,0.4331035564535
4299.99999999811,3.60630565604248,1.0000000008693,0.44596988432211
4399.99999999848,4.59029964606463,1.00000000092092,0.457877131836246
4499.99999999884,5.77538364963196,1.0000000009872,0.468429832031381
4599.9999999992,7.14538912659324,1.00000000102465,0.479178085073713
4699.99999999957,8.72871705435328,1.00000000102767,0.488894532007941
4799.99999999993,10.5395597484293,1.0000000010625,0.497948515056964
4900.00000000029,12.5557458404844,1.0000000010897,0.506603151311988
5000.00000000066,14.8120969750033,1.00000000109669,0.514142096118814
5100.00000000102,17.2923864499856,1.00000000112746,0.521709241525242
5200.00000000139,19.9781626829066,1.00000000112752,0.52867109781149
5300.00000000175,22.9094274426616,1.00000000116416,0.534455971349915
5400.00000000211,26.0340474038957,1.00000000116084,0.540674295978262
5500.00000000248,29.3626650789821,1.00000000116004,0.545886681435292
5600.00000000284,32.9041970591491,1.00000000115986,0.550790325986881
5700.00000000321,36.597026605515,1.00000000116747,0.555787882973513
5800.00000000357,40.4873146004288,1.00000000115969,0.559500195686619
5900.00000000393,44.5280643507557,1.00000000115157,0.563626818409577
6000.0000000043,48.6925214540691,1.00000000114256,0.567241819162777
6100.00000000466,53.0169611294949,1.00000000115257,0.569997187055358
6200.00000000502,57.4227067406237,1.00000000113749,0.573474591665213
6300.00000000539,61.9402206858179,1.0000000011117,0.575731338159544
6400.00000000575,66.5491859281527,1.00000000114436,0.578039868645631
6500.00000000612,71.1934572529542,1.00000000111947,0.580706585308416
6600.00000000648,75.9218421214499,1.00000000110365,0.582227493345341
6700.00000000684,80.6643539631841,1.00000000110438,0.584241202835969
6800.00000000721,85.4277330510483,1.00000000111326,0.585489670240241
6900.00000000757,90.2193803827164,1.00000000106259,0.586796092218701
7000.00000000793,94.9709398315494,1.00000000106528,0.588630867134147
7100.0000000083,99.7281260279191,1.0000000010768,0.588654639946583
7200.00000000866,104.444184078366,1.00000000103161,0.589609862683543
7300.00000000903,109.104947535918,1.00000000106104,0.590665343300225
7400.00000000939,113.73442516885,1.00000000101812,0.591314185858791
7500.00000000975,118.269167665401,1.00000000097879,0.591943158244552
7600.00000001012,122.745174725068,1.00000000098276,0.591743020996917
7700.00000001048,127.137358302005,1.00000000098612,0.592204472774979
7800.00000001084,131.419168123907,1.0000000010055,0.592893597456517
7900.00000001121,135.62234504263,1.00000000092323,0.592286828422983
8000.00000001157,139.698530855336,1.00000000095274,0.592479148202687
8100.00000001194,143.667562296087,1.00000000094725,0.59292165060752
8200.0000000123,147.525806663664,1.00000000090248,0.592045377511302
8300.00000001266,151.240562098263,1.00000000091734,0.592688584611674
8400.00000001303,154.848281153071,1.0000000008915,0.591638207934196
8500.00000001339,158.307921728143,1.00000000086681,0.592171318445057
8600.00000001376,161.637401916856,1.00000000087282,0.591447351929149
8700.00000001412,164.8368593067,1.00000000087075,0.590757649299592
8800.00000001448,167.882193487691,1.00000000085131,0.591305430516854
8900.00000001485,170.798630935389,1.00000000081982,0.589850489532732
9000.00000001521,173.567027094201,1.00000000082741,0.590356067715145
9100.00000001557,176.189084362984,1.00000000080515,0.58913861343005
9200.00000001594,178.67955018276,1.00000000080855,0.589297760772512
9300.0000000163,181.011988248196,1.00000000076812,0.588120419850643
9400.00000001667,183.212701668146,1.00000000077513,0.588828462950845
9500.00000001703,185.269062478848,1.00000000075277,0.586690188469262
9600.00000001739,187.179616873272,1.00000000075291,0.587841959136464
9700.00000001776,188.962835786341,1.00000000073842,0.586511264428003
9800.00000001812,190.595994255445,1.00000000072503,0.586215611704933
9900.00000001848,192.102153785424,1.00000000072792,0.586852271745495
10000.0000000188,193.474973739591,1.00000000071389,0.585259163283715
10100.0000000192,194.712771653514,1.00000000071614,0.586337766082632
10200.0000000196,195.832213173118,1.00000000070274,0.585380304586317
10300.0000000199,196.818502706156,1.00000000069648,0.584464116981008
10400.0000000203,197.687653295277,1.00000000068431,0.585121678860936
10500.0000000207,198.440579379119,1.00000000067902,0.584631235981568
10600.000000021,199.073093399007,1.00000000065491,0.582578133437406
10700.0000000214,199.599033628592,1.00000000068021,0.584661147078306
10800.0000000218,200.014794628348,1.00000000067127,0.585528964956062
10900.0000000221,200.329749341214,1.00000000062506,0.579946289761432
11000.0000000225,200.541513864265,1.00000000064331,0.583277250718087
11100.0000000229,200.659883005075,1.00000000066004,0.586752892271795
11200.0000000232,200.695913120563,1.00000000060132,0.577455410990525
11300.0000000236,200.633204940036,1.00000000060165,0.578343559495887
11400.0000000239,200.495507765136,1.0000000006602,0.585823501149998
11500.0000000243,200.291337372667,1.00000000062709,0.578797678526883
11600.0000000247,200.005835475683,1.00000000059246,0.571511987497449
11700.000000025,199.650940008507,1.00000000064382,0.579194045648706
11800.0000000254,199.237630679167,1.00000000066078,0.582642462770127
11900.0000000258,198.772318822916,1.00000000062441,0.575124393838399
12000.0000000261,198.245062321062,1.00000000057722,0.565302573817745
12100.0000000265,197.657060733832,1.00000000063878,0.577388325073525
12200.0000000269,197.036904985047,1.00000000068295,0.582132159179977
12300.0000000272,196.380161054642,1.00000000061321,0.570296645732531
12400.0000000276,195.672929859609,1.00000000055505,0.556437552840064
12500.0000000279,194.919256530544,1.00000000065675,0.573702275986354
12600.0000000283,194.14315563171,1.00000000072796,0.583467781632579
12700.0000000287,193.350927557727,1.00000000064587,0.56827343966897
12800.000000029,192.518666168282,1.00000000052684,0.55026052952061
12900.0000000294,191.64654618867,1.0000000006102,0.561627399071292
13000.0000000298,190.761871782676,1.00000000074794,0.584502607246563
13100.0000000301,189.871199035532,1.00000000069407,0.570341795905528
13200.0000000305,188.963680904061,1.00000000058158,0.552125978547874
13300.0000000309,188.021124753717,1.00000000054691,0.543282334965389
13400.0000000312,187.059265684512,1.00000000070699,0.571630915235121
13500.0000000316,186.100723505515,1.00000000082622,0.580829017780451
13600.0000000319,185.143023076928,1.00000000069527,0.557477177798578
13700.0000000323,184.171228361978,1.00000000057286,0.544099216527945
13800.0000000327,183.17546856252,1.00000000057706,0.540084248009392
13900.000000033,182.170430205999,1.00000000071518,0.568093507487035
14000.0000000334,181.174865997055,1.00000000082912,0.579503863440954
14100.0000000338,180.185914702203,1.00000000067657,0.550945530758258
14200.0000000341,179.190019650829,1.00000000059049,0.539938614705684
14300.0000000345,178.179112627798,1.00000000057198,0.535308744267809
14400.0000000349,177.160320024518,1.00000000067625,0.553914160703989
14500.0000000352,176.150566108221,1.00000000081381,0.577607234038253
14600.0000000356,175.153053897178,1.00000000075811,0.557577169405243
14700.0000000359,174.157691723145,1.00000000058591,0.532657743129357
14800.0000000363,173.156016464182,1.00000000061924,0.536068295879673
14900.0000000367,172.147801977369,1.00000000062314,0.537471871022353
15000.000000037,171.142724553516,1.00000000073796,0.557343952338266
15100.0000000374,170.147517794609,1.00000000081986,0.571006276592009
15200.0000000378,169.164534390751,1.00000000072791,0.543876384165309
15300.0000000381,168.184732100584,1.00000000062594,0.528346389248727
15400.0000000385,167.203143994875,1.00000000060703,0.535411978585732
15500.0000000389,166.222485033733,1.00000000066496,0.538451417378807
15600.0000000392,165.244622249591,1.00000000069515,0.545988032433238
15700.0000000396,164.276652641584,1.00000000077054,0.561342495572115
15800.0000000399,163.320087048504,1.00000000073051,0.546479155325871
15900.0000000403,162.369420082831,1.00000000066566,0.528478857679391
16000.0000000407,161.424017055905,1.0000000006192,0.530433707729498
16100.000000041,160.480635800183,1.00000000065909,0.540809999723634
16200.0000000414,159.542460802877,1.00000000066973,0.539977562956948
16300.0000000418,158.611396656005,1.00000000070115,0.540026018224872
16400.0000000418,157.688459592802,1.00000000072206,0.548306743095522
16500.0000000404,156.775325601817,1.00000000075327,0.542235597969438
16600.0000000389,155.869769809507,1.00000000067253,0.526642634774929
16700.0000000375,154.970780865618,1.00000000063322,0.53044928994894
16800.000000036,154.078439406253,1.00000000066085,0.543573276285791
16900.0000000346,153.192084159291,1.00000000068172,0.540755254287606
17000.0000000331,152.31333917395,1.00000000066329,0.532550491224645
17100.0000000317,151.442132796587,1.00000000068252,0.533842831452743
17200.0000000302,150.579055321799,1.00000000070094,0.541700601881537
17300.0000000287,149.724963112197,1.00000000070112,0.536688153871644
17400.0000000273,148.878551481581,1.00000000066472,0.531259459022706
17500.0000000258,148.040795683062,1.00000000065915,0.536960662191221
17600.0000000244,147.210761001744,1.00000000065713,0.544165122508114
17700.0000000229,146.38838866826,1.00000000065686,0.539009292681761
17800.0000000215,145.573874168405,1.00000000062952,0.529589610673712
17900.00000002,144.767018355441,1.00000000064946,0.527638442512159
18000.0000000186,143.968625470185,1.00000000067244,0.53511058243359
18100.0000000171,143.178761272511,1.00000000069589,0.541638171394994
18200.0000000156,142.39700901874,1.0000000006785,0.540020947103707
18300.0000000142,141.624011148466,1.00000000065229,0.536658654616584
18400.0000000127,140.859510805042,1.00000000064004,0.543288061145784
18500.0000000113,140.104053525291,1.00000000064938,0.545733466723222
18600.0000000098,139.356958172388,1.00000000058682,0.533171735902455
18700.0000000084,138.618429127482,1.00000000064542,0.526434313972573
18800.0000000069,137.888782281737,1.00000000063982,0.524771394231951
18900.0000000055,137.167528389985,1.00000000068851,0.534106216638997
19000.000000004,136.454436485372,1.00000000067635,0.542755347971344
19100.0000000026,135.749380086533,1.00000000068827,0.546528214910934
19200.0000000011,135.052198927975,1.00000000068201,0.540673624545712
19299.9999999996,134.363126006839,1.00000000069487,0.546094573521075
19399.9999999982,133.682402713933,1.00000000066817,0.546238033881238
19499.9999999967,133.011218195763,1.00000000060836,0.539519712075376
19599.9999999953,132.350227441842,1.00000000056583,0.522490721937
19699.9999999938,131.69902772007,1.00000000063385,0.521989623254994
19799.9999999924,131.056374302109,1.00000000070612,0.527401700342674
19899.9999999909,130.42146462017,1.0000000007056,0.531056399610876
19999.9999999895,129.793880958663,1.00000000067444,0.53766574093099
20099.999999988,129.173579202022,1.00000000068011,0.545698793738859
20199.9999999865,128.559910613833,1.00000000067879,0.547631209958012
20299.9999999851,127.952595716596,1.00000000070933,0.548477695555748
20399.9999999836,127.351743787502,1.00000000072832,0.548282903231969
20499.9999999822,126.759567648438,1.00000000065314,0.540332657348858
20599.9999999807,126.178597706418,1.00000000055136,0.527866889110126
20699.9999999793,125.609438141483,1.00000000058572,0.517368752966284
20799.9999999778,125.050248965145,1.00000000062862,0.517138053255049
20899.9999999764,124.498603465677,1.00000000071335,0.52515445860737
20999.9999999749,123.952762683358,1.00000000069955,0.526889120421309
21099.9999999734,123.41387405645,1.00000000066975,0.524197343804861
21199.999999972,122.881111383117,1.00000000072484,0.539871830610119
21299.9999999705,122.35237052264,1.00000000070964,0.551806621596851
21399.9999999691,121.827736155272,1.0000000007056,0.553131505729013
21499.9999999676,121.307428179102,1.00000000071693,0.548202912588696
21599.9999999662,120.793107953317,1.00000000070203,0.544416262258186
21699.9999999647,120.287847305515,1.00000000062055,0.531638297426898
21799.9999999633,119.794730153805,1.00000000056743,0.52412378166402
21899.9999999618,119.313726183671,1.000000000612,0.520487794950798
21999.9999999603,118.842839291323,1.00000000061421,0.514058570363648
22099.9999999589,118.379271280489,1.00000000070984,0.517526373976292
22199.9999999574,117.921090066617,1.00000000070296,0.521477889394891
22299.999999956,117.468045604633,1.00000000066622,0.519809700195704
22399.9999999545,117.019826698403,1.00000000066388,0.52421051957777
22499.9999999531,116.574617671841,1.00000000072463,0.538623962160515
22599.9999999516,116.130536849151,1.00000000075127,0.55176695331346
22699.9999999502,115.688402433216,1.00000000071937,0.55304959004248
22799.9999999487,115.249538958825,1.00000000071683,0.545718851270857
22899.9999999473,114.816331572081,1.0000000006569,0.537674815140544
22999.9999999458,114.391952691664,1.00000000062903,0.532104837121476
23099.9999999443,113.977659808321,1.00000000063408,0.527683853140483
23199.9999999429,113.57463180499,1.0000000006052,0.52278160600561
23299.9999999414,113.181985652464,1.00000000064339,0.522996413008546
23399.99999994,112.798359100083,1.00000000061561,0.514314560324246
23499.9999999385,112.422641239781,1.00000000066254,0.513219747015344
23599.9999999371,112.051899849391,1.00000000069023,0.518631302574822
23699.9999999356,111.684816119962,1.00000000068789,0.521941728743116
23799.9999999342,111.32009846528,1.00000000069946,0.526013174955012
23899.9999999327,110.956453323866,1.00000000074498,0.532473969898144
23999.9999999312,110.592187627635,1.0000000007369,0.5404270211732
24099.9999999298,110.227111482038,1.00000000072579,0.547441279948797
24199.9999999283,109.864333213708,1.00000000067578,0.545690497126944
24299.9999999269,109.506101914985,1.00000000067044,0.540498479004845
24399.9999999254,109.153801353498,1.00000000066625,0.53855865478749
24499.999999924,108.808176138728,1.00000000066394,0.538365991795692
24599.9999999225,108.469782565293,1.00000000065371,0.536793443262824
24699.9999999211,108.140953354018,1.00000000062148,0.528671659773508
24799.9999999196,107.82255570572,1.00000000061796,0.522311454241938
24899.9999999181,107.514099871784,1.00000000063501,0.522432327857171
24999.9999999167,107.214073618195,1.00000000065517,0.519895726015296
25099.9999999152,106.92060678615,1.00000000066216,0.518831864580781
25199.9999999138,106.63261659409,1.00000000066197,0.52305061478181
25299.9999999123,106.346612333134,1.00000000070562,0.529411127267978
25399.9999999109,106.060653397634,1.00000000070339,0.53574266296401
25499.9999999094,105.774775076416,1.00000000069902,0.535844753209902
25599.999999908,105.48769702737,1.00000000071628,0.536398770954481
25699.9999999065,105.200341421632,1.00000000070886,0.534583688016223
25799.9999999051,104.913905480439,1.00000000068367,0.543081667604489
25899.9999999036,104.629462676164,1.00000000070746,0.547082445874016
25999.9999999021,104.348413727777,1.00000000067982,0.547740735438933
26099.9999999007,104.071790087749,1.00000000067096,0.547237683925085
26199.9999998992,103.800151930648,1.0000000006518,0.545721531265613
26299.9999998978,103.534284662284,1.00000000065315,0.54353127984616
26399.9999998963,103.275415345188,1.00000000064575,0.537615164545697
26499.9999998949,103.025527330923,1.00000000063687,0.529531314127637
26599.9999998934,102.785727557055,1.00000000058459,0.522596150943986
26699.999999892,102.556833735606,1.00000000062171,0.522512348448722
26799.9999998905,102.335512525569,1.00000000065563,0.52766173430562
26899.999999889,102.119416731761,1.00000000065955,0.528630069573637
26999.9999998876,101.906749302946,1.00000000069598,0.533048045559344
27099.9999998861,101.69545577845,1.00000000067458,0.534123247532488
27199.9999998847,101.484591021543,1.00000000067891,0.540318155520684
27299.9999998832,101.273353575482,1.000000000705,0.543283727498864
27399.9999998818,101.061695569963,1.00000000069399,0.538730901695136
27499.9999998803,100.84959318873,1.00000000070301,0.53845907898716
27599.9999998789,100.636200035984,1.00000000070602,0.540619987221814
27699.9999998774,100.422235326046,1.00000000067879,0.542394837678909
27799.9999998759,100.209247703377,1.00000000068269,0.548121099900044
27899.9999998745,99.9983920631896,1.00000000067032,0.554799038748239
27999.999999873,99.7904013733949,1.00000000067564,0.55472818616254
28099.9999998716,99.5841696300643,1.00000000070304,0.554443148505821
28199.9999998701,99.3802503281172,1.00000000071627,0.550135666857612
28299.9999998687,99.1800786667578,1.00000000068006,0.542767715754205
28399.9999998672,98.9853255469978,1.0000000006695,0.537917152377177
28499.9999998658,98.7987077165418,1.00000000063031,0.528714716839868
28599.9999998643,98.6224849463143,1.0000000005789,0.522968160021306
28699.9999998629,98.4561598510731,1.00000000060894,0.523806659508997
28799.9999998614,98.2977665762092,1.00000000065617,0.529380053749714
28899.9999998599,98.1430081997891,1.00000000069681,0.535338460506847
