Time,AGPnorm,Energy,Entropy
0,0,1,-4.27123533842018e-19
99.9999999999986,0.00297641963808687,0.999999999999082,0.00988594456325425
199.999999999993,0.00845571182523543,0.999999999999517,0.0284798828502857
300,0.0178445353077443,0.999999999999716,0.0558588343839237
400.000000000022,0.028514895827888,0.999999999999509,0.0891981530900621
500.000000000045,0.0409464246202247,1.00000000000102,0.131349605240022
600.000000000068,0.0545148101026997,1.00000000000786,0.183897164822634
700.000000000091,0.0661427211947591,1.00000000005924,0.251962615406123
800.000000000113,0.111691861023574,1.00000000022366,0.330609091755982
900.000000000136,0.247431598373994,1.00000000049112,0.405326957825421
1000.00000000016,0.736263150181435,1.00000000072925,0.463693243549907
1100.0000000001,1.76690332722206,1.00000000100524,0.504434168245023
1200,3.60624219989222,1.00000000111522,0.529864037104306
1299.99999999991,6.26221798291209,1.00000000113978,0.545751066386213
1399.99999999982,9.71904463995773,1.00000000121922,0.55212471793964
1499.99999999973,13.7654130889002,1.00000000114936,0.554550127010535
1599.99999999964,18.2196597563687,1.00000000116458,0.552895318578707
1699.99999999955,22.8260821674566,1.0000000011293,0.547554251541226
1799.99999999946,27.3950614393828,1.00000000107919,0.542019477703508
1899.99999999937,31.7293475460475,1.00000000107263,0.533884449544981
1999.99999999928,35.7095074027522,1.00000000100715,0.528106853771946
2099.99999999919,39.2130635887505,1.00000000087881,0.516105707565884
2199.99999999909,42.2059283719486,1.0000000008548,0.518864761712819
2299.999999999,44.6490813249881,1.00000000077872,0.502294331295871
2399.99999999891,46.521101713067,1.00000000080364,0.492085954535052
2499.99999999882,47.9038934818299,1.00000000075246,0.522320788070564
2599.99999999873,48.8323312355657,1.00000000063885,0.482287456292256
2699.99999999864,49.2274072385383,1.00000000055863,0.457208989327303
2799.99999999855,49.2838499009744,1.00000000080766,0.533365106024888
2899.99999999846,49.1950412566795,1.00000000077696,0.518231384703346
2999.99999999837,48.7805875810706,1.00000000040988,0.403198502675193
3099.99999999828,48.0172305714624,1.00000000053126,0.447611576933663
3199.99999999819,47.2117683458942,1.00000000093949,0.553537487776254
3299.99999999809,46.5108117658952,1.00000000087037,0.545459398428114
3399.999999998,45.7383748317624,1.00000000051388,0.40252511737591
3499.99999999791,44.7381308855236,1.00000000028259,0.323102099634541
3599.99999999782,43.6534317919786,1.00000000072595,0.458083061977789
3699.99999999773,42.6389153375536,1.00000000102608,0.543500418349506
3799.99999999764,41.7692739563766,1.00000000105634,0.559558061634622
3899.99999999755,40.9733318190771,1.00000000073525,0.48721529259726
3999.99999999746,40.1172350899754,1.00000000035883,0.330478981168228
4099.99999999738,39.2031796302417,1.00000000028386,0.286190471594302
4199.99999999775,38.3034612475401,1.00000000060474,0.412455243748371
4299.99999999811,37.4264525373357,1.00000000086691,0.511603970190797
4399.99999999848,36.5872342361237,1.00000000087611,0.507196448121777
4499.99999999884,35.8122902665396,1.00000000090703,0.537555250275252
4599.9999999992,35.106524982737,1.00000000088262,0.554724346876542
4699.99999999957,34.4245249480782,1.00000000062123,0.461798044016127
4799.99999999993,33.7424036302538,1.00000000031859,0.320995627896446
4900.00000000029,33.1221566286668,1.00000000029803,0.27377155829715
5000.00000000066,32.604316192578,1.00000000048312,0.350853227517457
5100.00000000102,32.1260642831318,1.00000000074046,0.457071456760706
5200.00000000139,31.6115347806005,1.00000000092319,0.53480886126456
5300.00000000175,31.0763607979634,1.00000000069959,0.522428533211908
5400.00000000211,30.555439413078,1.00000000062433,0.454779651530675
5500.00000000248,30.0374994047158,1.00000000077803,0.470070043686332
5600.00000000284,29.5094271657864,1.00000000099413,0.536291899269009
5700.00000000321,28.99576793552,1.00000000101095,0.569343397937257
5800.00000000357,28.5081636469419,1.00000000077544,0.537296119463247
5900.00000000393,28.0398241624569,1.00000000049566,0.437560387513411
6000.0000000043,27.6296095683763,1.00000000026881,0.325570087737032
6100.00000000466,27.3564753183436,1.00000000025886,0.26901696305302
6200.00000000502,27.2482790550428,1.0000000004464,0.305464160036798
6300.00000000539,27.2379490802085,1.00000000061652,0.394601319331446
6400.00000000575,27.2299723218212,1.00000000078507,0.475941749674524
6500.00000000612,27.15825530766,1.00000000085016,0.511982840302887
6600.00000000648,27.0038781731152,1.00000000088231,0.51412221508303
6700.00000000684,26.7772376538287,1.00000000081961,0.531406794914938
6800.00000000721,26.5081734866086,1.00000000078769,0.54131020412015
6900.00000000757,26.2414288743898,1.00000000057817,0.503651087280741
7000.00000000793,26.0042880183759,1.00000000050832,0.471389965412316
7100.0000000083,25.7788939943999,1.0000000006137,0.491875330414806
7200.00000000866,25.5331192497177,1.0000000007009,0.506857480154136
7300.00000000903,25.2595216878164,1.00000000077508,0.505502364942304
7400.00000000939,24.9591631364654,1.00000000096472,0.514660868820675
7500.00000000975,24.6384185894173,1.00000000097741,0.547843764909046
7600.00000001012,24.3187096592256,1.00000000100916,0.571248675133844
7700.00000001048,24.0093097562785,1.00000000082496,0.558139483239259
7800.00000001084,23.7078146128983,1.00000000056023,0.501872523183577
7900.00000001121,23.4330429805588,1.00000000037578,0.414659923632085
8000.00000001157,23.2441605829594,1.00000000024257,0.336133162628948
8100.00000001194,23.212933154763,1.00000000023123,0.287254995221691
8200.0000000123,23.3798296829107,1.00000000032441,0.2842235679583
8300.00000001266,23.7188318464393,1.00000000049509,0.332666708943672
8400.00000001303,24.1525322294192,1.00000000063023,0.392337063873503
8500.00000001339,24.5782118389985,1.00000000078227,0.453922855722507
8600.00000001376,24.9251702618621,1.0000000008871,0.501525307834776
8700.00000001412,25.1836078695458,1.00000000073865,0.520875563621339
8800.00000001448,25.3578566558349,1.0000000007863,0.533669722323023
8900.00000001485,25.450885091551,1.00000000080727,0.558183116747572
9000.00000001521,25.4774728285103,1.00000000073849,0.556382937196706
9100.00000001557,25.4645148590776,1.00000000070116,0.533556005799511
9200.00000001594,25.4244329209764,1.00000000066574,0.516036702144292
9300.0000000163,25.3495733917486,1.00000000079854,0.519222765881237
9400.00000001667,25.2305396961438,1.00000000085386,0.533821227692112
9500.00000001703,25.0857124032835,1.00000000077361,0.536875435818589
9600.00000001739,24.94804641821,1.0000000005602,0.516669605070096
9700.00000001776,24.833354294976,1.0000000005915,0.496731071330767
9800.00000001812,24.7297447063935,1.00000000068964,0.494362477727425
9900.00000001848,24.6259782348686,1.00000000067986,0.500734671285373
10000.0000000188,24.5201555059438,1.00000000068015,0.506755321108066
10100.0000000192,24.4117136313726,1.00000000069361,0.514366705084371
10200.0000000196,24.2982758423565,1.00000000069176,0.524368589102012
10300.0000000199,24.1718165095629,1.00000000069335,0.538977260101269
10400.0000000203,24.0319450947738,1.00000000074252,0.548996229993885
10500.0000000207,23.8869289183629,1.00000000059543,0.550330104619222
10600.000000021,23.7426512768711,1.00000000055764,0.545813710195435
10700.0000000214,23.597096069087,1.00000000065504,0.542730321733706
10800.0000000218,23.4410117708493,1.00000000067845,0.548457806776472
10900.0000000221,23.2688973940565,1.00000000079342,0.550292839326093
11000.0000000225,23.081486608548,1.00000000085454,0.554113710085781
11100.0000000229,22.8852259873427,1.00000000086142,0.557794006925088
11200.0000000232,22.6902468638839,1.00000000097013,0.562557925620084
11300.0000000236,22.5077695518419,1.00000000105072,0.571029834613834
11400.0000000239,22.3441276125882,1.00000000104741,0.5773786875034
11500.0000000243,22.1929778830867,1.00000000091879,0.574663973794063
11600.0000000247,22.039089231764,1.00000000075249,0.553694856185071
11700.000000025,21.869668228001,1.00000000058497,0.510488780769017
11800.0000000254,21.6902569938736,1.00000000040744,0.453508055508434
11900.0000000258,21.5313467564667,1.00000000033172,0.397789992041597
12000.0000000261,21.4410404082228,1.00000000027011,0.343961424428269
12100.0000000265,21.4771676992333,1.00000000021333,0.306750882491531
12200.0000000269,21.6859422082075,1.00000000025798,0.298012447941544
12300.0000000272,22.0898039018973,1.00000000031537,0.298078908100326
12400.0000000276,22.6851518680209,1.00000000038774,0.318636613164001
12500.0000000279,23.4103760944763,1.00000000059069,0.359049534031731
12600.0000000283,24.202824288473,1.00000000065882,0.398809895575337
12700.0000000287,24.9997452827243,1.00000000078489,0.438652754626846
12800.000000029,25.7401763068386,1.00000000086034,0.474818587682917
12900.0000000294,26.4012323682118,1.00000000087226,0.503780002215759
13000.0000000298,26.9799921027424,1.00000000083481,0.517253814488432
13100.0000000301,27.476688753397,1.00000000079746,0.534036422985103
13200.0000000305,27.892402471576,1.00000000079479,0.55876813220105
13300.0000000309,28.2337755522939,1.00000000075884,0.568788780507219
13400.0000000312,28.5080411134964,1.00000000075392,0.563973347149697
13500.0000000316,28.72549902318,1.00000000072245,0.558483801850422
13600.0000000319,28.8967045538427,1.00000000071736,0.564439263336586
13700.0000000323,29.0187626688134,1.00000000074756,0.583135569632457
13800.0000000327,29.0920264258938,1.00000000075425,0.585467724924246
13900.000000033,29.1282568689469,1.00000000069757,0.572341700004192
14000.0000000334,29.1359397356081,1.00000000074558,0.559422037218672
14100.0000000338,29.1154272019485,1.00000000071807,0.54705579725211
14200.0000000341,29.0800757478991,1.00000000067648,0.537394348526808
14300.0000000345,29.0384198208721,1.00000000070635,0.542363026318073
14400.0000000349,28.9799768489489,1.0000000007819,0.551216558500405
14500.0000000352,28.9046121313864,1.0000000007161,0.552012208034921
14600.0000000356,28.8181672724078,1.00000000063991,0.564899916736796
14700.0000000359,28.72112610495,1.00000000076517,0.56697949768916
14800.0000000363,28.6123523964629,1.00000000079322,0.563980706004098
14900.0000000367,28.4959941206311,1.00000000068328,0.563018656487676
15000.000000037,28.3752918597537,1.00000000073877,0.561608704368955
15100.0000000374,28.2559106897819,1.00000000067815,0.548124838865774
15200.0000000378,28.1443474635127,1.00000000056849,0.541968200105955
15300.0000000381,28.0389279123346,1.00000000067729,0.537993320713797
15400.0000000385,27.9310386988659,1.00000000073439,0.53915314331376
15500.0000000389,27.8171261225941,1.00000000077021,0.546051499537763
15600.0000000392,27.6978918781407,1.00000000088024,0.55065232855497
15700.0000000396,27.5700154644182,1.00000000082362,0.562377991330116
15800.0000000399,27.4345568319731,1.00000000076427,0.565185368551569
15900.0000000403,27.2995974674447,1.00000000069044,0.559662485498519
16000.0000000407,27.1721167177154,1.00000000063893,0.553984848967524
16100.000000041,27.0577056158408,1.00000000062195,0.543614986423424
16200.0000000414,26.9586194428101,1.00000000061598,0.534597006315263
16300.0000000418,26.8764131133327,1.00000000059076,0.523954157303076
16400.0000000418,26.8111441128912,1.00000000064143,0.508574622294043
16500.0000000404,26.7513284685895,1.00000000079675,0.500944813649128
16600.0000000389,26.6894225878962,1.00000000072945,0.508053677677855
16700.0000000375,26.6317662722656,1.00000000067671,0.507949443554582
16800.000000036,26.5847085855099,1.00000000061585,0.515773293766525
16900.0000000346,26.5423589442554,1.00000000070038,0.538015943741246
17000.0000000331,26.5004482562931,1.00000000062606,0.555879861909708
17100.0000000317,26.4544209133563,1.00000000075637,0.567713237552885
17200.0000000302,26.3976205627392,1.00000000078574,0.56124958503079
17300.0000000287,26.3305222654558,1.00000000083055,0.549675614092576
17400.0000000273,26.2620411875915,1.00000000065527,0.547093259459965
17500.0000000258,26.1983870226612,1.00000000064577,0.553503420767928
17600.0000000244,26.1326301619259,1.00000000073819,0.561685342348533
17700.0000000229,26.0607589921698,1.00000000077663,0.573300598391791
17800.0000000215,25.9876396000042,1.00000000064147,0.582353564795336
17900.00000002,25.9144243095267,1.00000000073363,0.583960804172775
18000.0000000186,25.8341712057812,1.00000000075666,0.590674591919775
18100.0000000171,25.7460280094452,1.00000000073609,0.587264669328173
18200.0000000156,25.6524202817756,1.00000000077564,0.587139399344575
18300.0000000142,25.5524039770646,1.0000000007826,0.59208971876862
18400.0000000127,25.4487130672199,1.00000000071763,0.597058986867316
18500.0000000113,25.3475887234448,1.00000000065001,0.583789070193732
18600.0000000098,25.2526597126329,1.00000000067522,0.576138649917753
18700.0000000084,25.1578184662129,1.00000000073927,0.575737485878161
18800.0000000069,25.059812383996,1.00000000071668,0.567533772304204
18900.0000000055,24.9623965733845,1.00000000066329,0.560895879541917
19000.000000004,24.8685893511491,1.00000000064056,0.570644975212601
19100.0000000026,24.7767506942857,1.00000000067959,0.57616969135985
19200.0000000011,24.684051307244,1.00000000069849,0.578686456343546
19299.9999999996,24.5921672751316,1.00000000063945,0.577037932821368
19399.9999999982,24.5014454188424,1.00000000063912,0.583995530544094
19499.9999999967,24.4107742069344,1.00000000073565,0.573433623041032
19599.9999999953,24.3169641573746,1.0000000007895,0.575946477990796
19699.9999999938,24.2180354322632,1.00000000073879,0.583847245460701
19799.9999999924,24.1158924121356,1.00000000075831,0.573476260863515
19899.9999999909,24.0119671772745,1.00000000068573,0.569097390684404
19999.9999999895,23.9061483884075,1.00000000068294,0.577514095911208
20099.999999988,23.7971886949388,1.00000000076501,0.596873189999151
20199.9999999865,23.6858311200565,1.00000000074428,0.606305942927848
20299.9999999851,23.5738341395722,1.000000000713,0.602121570812746
20399.9999999836,23.463340571248,1.00000000060246,0.589229105378461
20499.9999999822,23.3551609168366,1.00000000069598,0.588907314476969
20599.9999999807,23.2456886247516,1.00000000076753,0.599962953478424
20699.9999999793,23.1347266321909,1.00000000079244,0.611636601301685
20799.9999999778,23.0242869889894,1.00000000064206,0.605483748410974
20899.9999999764,22.9149290314226,1.00000000056918,0.579180464572015
20999.9999999749,22.8066376713662,1.00000000061704,0.58613634111998
21099.9999999734,22.6991579817651,1.00000000067388,0.595148982437531
21199.999999972,22.5926414035575,1.00000000059875,0.594345654701127
21299.9999999705,22.4873866385898,1.00000000060088,0.590494903899688
21399.9999999691,22.38350943264,1.00000000067173,0.589829055036043
21499.9999999676,22.2818788780782,1.0000000006549,0.599196399700859
21599.9999999662,22.1832773215105,1.00000000075753,0.598496414772734
21699.9999999647,22.0901098285286,1.00000000076768,0.592406828725774
21799.9999999633,22.0046133004802,1.00000000075311,0.600241191645081
21899.9999999618,21.9299923083014,1.00000000083498,0.608289876714631
21999.9999999603,21.8725270164917,1.00000000089949,0.606406038690108
22099.9999999589,21.8339837000411,1.00000000090581,0.608068479131775
22199.9999999574,21.82470411061,1.00000000093359,0.615429053628489
22299.999999956,21.8428465044679,1.00000000095239,0.615530678528637
22399.9999999545,21.9046555409101,1.00000000097242,0.621389210525126
22499.9999999531,22.0017171415267,1.00000000106092,0.623591227150082
22599.9999999516,22.1479168899579,1.00000000098467,0.617813885396542
22699.9999999502,22.3305556838562,1.00000000108262,0.612744689689979
22799.9999999487,22.5581791520121,1.00000000101383,0.604317344913351
22899.9999999473,22.8142166935988,1.00000000099223,0.595332260672497
22999.9999999458,23.0857177521196,1.0000000008987,0.589934330086265
23099.9999999443,23.3505682800635,1.00000000086484,0.580735581484485
23199.9999999429,23.5850832067241,1.00000000077993,0.569046708295294
23299.9999999414,23.7753611169083,1.0000000006869,0.546932196951188
23399.99999994,23.9044215127503,1.000000000602,0.521382991276218
23499.9999999385,23.9672332518738,1.00000000051445,0.493175234628279
23599.9999999371,23.9712903118964,1.00000000040166,0.463993546921004
23699.9999999356,23.9207152588458,1.00000000037838,0.431874671211992
23799.9999999342,23.8451335787322,1.00000000035094,0.403758577044363
23899.9999999327,23.7574049458458,1.00000000029941,0.376443368328197
23999.9999999312,23.6983399309448,1.00000000027464,0.349304414442244
24099.9999999298,23.6918290711573,1.00000000025589,0.330633987589919
24199.9999999283,23.7742677978504,1.00000000021923,0.311490626139277
24299.9999999269,23.9781485094768,1.00000000024792,0.301195439598548
24399.9999999254,24.3241335896,1.00000000026774,0.300572550051658
24499.999999924,24.835300061404,1.00000000028144,0.298491655603782
24599.9999999225,25.5219515570285,1.0000000003251,0.311077049897233
24699.9999999211,26.3708208775423,1.00000000036709,0.317325550420994
24799.9999999196,27.3970574108164,1.00000000044566,0.331900548738119
24899.9999999181,28.5325520274399,1.00000000057928,0.349172960606313
24999.9999999167,29.8041970132776,1.00000000058966,0.367187413732172
25099.9999999152,31.1202042618448,1.00000000071618,0.387882884606275
25199.9999999138,32.5000293898769,1.00000000073478,0.405922060665971
25299.9999999123,33.8726944519843,1.00000000076303,0.421939810874578
25399.9999999109,35.2432581889081,1.00000000079196,0.431837714080853
25499.9999999094,36.5697677763903,1.00000000087946,0.455785182924397
25599.999999908,37.8458992337325,1.0000000007605,0.469087400223711
25699.9999999065,39.0704839115956,1.00000000092672,0.47998750437384
25799.9999999051,40.2136342839335,1.00000000087561,0.489961562827875
25899.9999999036,41.2987671325978,1.00000000086303,0.50712984068003
25999.9999999021,42.3073905902247,1.00000000088729,0.522007926229349
26099.9999999007,43.2584233552329,1.0000000008591,0.526369145597867
26199.9999998992,44.1369807905488,1.00000000082099,0.535323543224205
26299.9999998978,44.9448882042288,1.00000000091705,0.54275771361305
26399.9999998963,45.696044217501,1.00000000071424,0.55522836822002
26499.9999998949,46.3815794751266,1.00000000075879,0.565678615897756
26599.9999998934,47.024434505354,1.00000000078485,0.572118136100157
26699.999999892,47.6073323740959,1.00000000072966,0.569507803085897
26799.9999998905,48.1483690347595,1.00000000083147,0.572440652728679
26899.999999889,48.6284803012739,1.000000000875,0.588052084329398
26999.9999998876,49.0552464774508,1.00000000080802,0.598435451093457
27099.9999998861,49.4360597077815,1.00000000076268,0.60241746038092
27199.9999998847,49.7779686399644,1.00000000073842,0.592058161930786
27299.9999998832,50.0915437707676,1.00000000076692,0.588993363800002
27399.9999998818,50.3556300622282,1.00000000088733,0.596082272160771
27499.9999998803,50.5759258126582,1.00000000087946,0.611414651493165
27599.9999998789,50.7459802128732,1.00000000087525,0.620144847707644
27699.9999998774,50.8909907945165,1.00000000075937,0.619532898061908
27799.9999998759,51.0147682237239,1.00000000072827,0.597638409170412
27899.9999998745,51.1260650157579,1.0000000007691,0.588789735455546
27999.999999873,51.2130564741955,1.00000000080613,0.592318110534069
28099.9999998716,51.2619908798197,1.00000000086689,0.603916401682341
28199.9999998701,51.2797780918985,1.00000000081558,0.606525762981425
28299.9999998687,51.2778025166654,1.00000000067763,0.601952593070178
28399.9999998672,51.271805938967,1.00000000070092,0.598194281434145
28499.9999998658,51.2566221375384,1.00000000073085,0.593806673460206
28599.9999998643,51.235732219795,1.00000000078028,0.593747662816759
28699.9999998629,51.200728077535,1.00000000083308,0.580925974646526
28799.9999998614,51.1534145469377,1.00000000076275,0.566861121593241
28899.9999998599,51.0952324733214,1.00000000077282,0.571069692536319
28999.9999998585,51.025165495951,1.00000000080696,0.585619374939839
