Time,AGPnorm,Energy,Entropy
0,0,1,-1.15323354137336e-17
99.9999999999986,2.41296953684328e-05,0.999999999999689,0.00100099305159343
199.999999999993,0.00213156301422417,0.999999999998561,0.00162631626888795
300,0.00519023185013326,1.00000000000066,0.00285822475543624
400.000000000022,0.00718956503683848,0.999999999998604,0.00487141698752231
500.000000000045,0.00886481348660317,0.999999999999591,0.00660098294565178
600.000000000068,0.0126625323093299,1.00000000000012,0.00912444648046583
700.000000000091,0.0156432723258485,0.999999999998293,0.0117512611541362
800.000000000113,0.0199687057995882,1.00000000000064,0.014481377984838
900.000000000136,0.0251930508118468,0.999999999998941,0.0177441169342343
1000.00000000016,0.0293777810941717,0.999999999999096,0.0209527437601441
1100.0000000001,0.0348659754185257,1.00000000000048,0.0245003635627751
1200,0.0408496215133067,0.999999999998222,0.0283220539292798
1299.99999999991,0.0472111954103552,1.00000000000043,0.0321889211919196
1399.99999999982,0.0543316120350651,0.999999999999364,0.0363988794976644
1499.99999999973,0.0608427287328908,0.999999999998608,0.0407424088730126
1599.99999999964,0.0680099054315084,1.00000000000074,0.0452375042616879
1699.99999999955,0.076132528921489,0.99999999999837,0.0500724125627563
1799.99999999946,0.0840850672260585,1.00000000000004,0.0550187357523734
1899.99999999937,0.0924422653804332,0.999999999999807,0.0601799276328154
1999.99999999928,0.100747012045733,0.999999999998242,0.0656102093090922
2099.99999999919,0.109369634361479,1.00000000000081,0.0711796816368287
2199.99999999909,0.118836278245565,0.999999999998707,0.077099046381564
2299.999999999,0.127875600512598,0.99999999999953,0.0832642110318714
2399.99999999891,0.136833706238245,1.00000000000023,0.0895989612341816
2499.99999999882,0.146304538176218,0.999999999998079,0.0963407250234076
2599.99999999873,0.155898818876859,1.00000000000069,0.103352750294556
2699.99999999864,0.165974315800481,0.99999999999912,0.110750379436707
2799.99999999855,0.175584275583176,0.999999999998986,0.11861053837728
2899.99999999846,0.184797553694297,1.0000000000006,0.126761276368078
2999.99999999837,0.194803471904957,0.999999999998226,0.135587170158223
3099.99999999828,0.204750387619782,1.00000000000072,0.145025444029229
3199.99999999819,0.214791407490435,1.00000000000022,0.155182778662319
3299.99999999809,0.224205137382848,1.00000000000055,0.166295384235005
3399.999999998,0.233840014839268,1.00000000000531,0.178221315497365
3499.99999999791,0.243417910860921,1.00000000000818,0.191282522853853
3599.99999999782,0.253386211349365,1.0000000000193,0.205302793405157
3699.99999999773,0.264586811576457,1.00000000003096,0.219901324439933
3799.99999999764,0.273059946473109,1.00000000004828,0.235061002729222
3899.99999999755,0.288691155513559,1.00000000007311,0.250248152345949
3999.99999999746,0.305429844714897,1.00000000009602,0.26546787423788
4099.99999999738,0.327998296279094,1.00000000013022,0.28056423850597
4199.99999999775,0.369343963032259,1.00000000016377,0.29508873756212
4299.99999999811,0.41767094948468,1.00000000020219,0.309545850141363
4399.99999999848,0.499806373786336,1.00000000023064,0.323554659489497
4499.99999999884,0.616758376084738,1.00000000026759,0.337136863154305
4599.9999999992,0.771042243428705,1.00000000031382,0.350481239701112
4699.99999999957,0.996208389633799,1.00000000033936,0.363121841404568
4799.99999999993,1.2829169245356,1.00000000038246,0.375434594042597
4900.00000000029,1.65711731667641,1.00000000043617,0.387365729972955
5000.00000000066,2.14143650920237,1.00000000044794,0.398634015608978
5100.00000000102,2.73011313748575,1.00000000046311,0.409872364998628
5200.00000000139,3.4584520646402,1.00000000049992,0.4201862208635
5300.00000000175,4.33459068496284,1.00000000052085,0.430280578169498
5400.00000000211,5.36234024570602,1.00000000054088,0.44010481573254
5500.00000000248,6.57662751310296,1.00000000060784,0.448826176888284
5600.00000000284,7.97258899437082,1.00000000061496,0.457685421995917
5700.00000000321,9.55953413252875,1.00000000060088,0.466117674710853
5800.00000000357,11.3673703763263,1.00000000062889,0.473778026058497
5900.00000000393,13.3773819777134,1.00000000067177,0.481409928638572
6000.0000000043,15.6122484984934,1.00000000063189,0.488412910919501
6100.00000000466,18.0836844409822,1.00000000068274,0.494896569790219
6200.00000000502,20.7636782433195,1.00000000068688,0.501514327712009
6300.00000000539,23.692108630099,1.00000000069507,0.507013281507196
6400.00000000575,26.8461350098322,1.00000000072925,0.512757822877335
6500.00000000612,30.2161429537211,1.00000000072177,0.517943488877362
6600.00000000648,33.8358827021347,1.00000000071401,0.522798973353188
6700.00000000684,37.6513247747409,1.00000000073405,0.527710506739309
6800.00000000721,41.6920528058936,1.00000000074301,0.531725353010511
6900.00000000757,45.9513853313836,1.00000000073671,0.535793010830271
7000.00000000793,50.3836586363094,1.00000000071231,0.539861981621767
7100.0000000083,55.0361297849639,1.00000000075918,0.54301916041656
7200.00000000866,59.8511233342285,1.00000000074594,0.546581809153365
7300.00000000903,64.8331480449452,1.00000000074731,0.549461073047524
7400.00000000939,69.9997733169261,1.00000000077935,0.552094705313685
7500.00000000975,75.2803538669724,1.00000000073094,0.555199818911538
7600.00000001012,80.7212973547307,1.00000000074795,0.557144695503302
7700.00000001048,86.281187223931,1.00000000076401,0.559597492641623
7800.00000001084,91.9341564750841,1.00000000073502,0.56177336576367
7900.00000001121,97.7182198452333,1.00000000073771,0.563386731819369
8000.00000001157,103.556851960518,1.0000000007218,0.565535787031446
8100.00000001194,109.482056569432,1.00000000071142,0.566938092379853
8200.0000000123,115.476914814406,1.00000000073831,0.568289529812342
8300.00000001266,121.493339965949,1.00000000074478,0.569835024322324
8400.00000001303,127.577741293882,1.0000000007142,0.570639033350867
8500.00000001339,133.664209433812,1.00000000069911,0.5721304617611
8600.00000001376,139.762894595003,1.00000000068749,0.573018820162266
8700.00000001412,145.882446565916,1.00000000070988,0.573322875267188
8800.00000001448,151.96180586572,1.00000000069973,0.574676681951259
8900.00000001485,158.046862298031,1.00000000066051,0.574973759405236
9000.00000001521,164.089225609247,1.00000000069313,0.57556930613883
9100.00000001557,170.082190423549,1.00000000067013,0.576321604378121
9200.00000001594,176.048532147964,1.00000000064014,0.576239329222785
9300.0000000163,181.929563834913,1.00000000064772,0.577269045581566
9400.00000001667,187.759486653738,1.00000000064947,0.576859839983899
9500.00000001703,193.512762247895,1.00000000065767,0.57738079548467
9600.00000001739,199.16722878964,1.00000000063697,0.577296245953128
9700.00000001776,204.754994522427,1.00000000064006,0.57742742791203
9800.00000001812,210.225936251584,1.00000000061298,0.577511320490867
9900.00000001848,215.601610865078,1.0000000006249,0.577459038139296
10000.0000000188,220.875600503457,1.00000000061278,0.577650736716568
10100.0000000192,226.017505329568,1.00000000061714,0.57697638516979
10200.0000000196,231.061036506333,1.00000000060685,0.577664672039723
10300.0000000199,235.968954198016,1.00000000059071,0.576780872277713
10400.0000000203,240.748774195621,1.00000000055544,0.577098773959741
10500.0000000207,245.41049262155,1.00000000058537,0.576885645436392
10600.000000021,249.921062310591,1.00000000055205,0.575957449904058
10700.0000000214,254.310831523701,1.0000000005691,0.576440010759164
10800.0000000218,258.555950536177,1.00000000056403,0.57565674186438
10900.0000000221,262.655988580366,1.00000000053092,0.575205617601397
11000.0000000225,266.625468320685,1.00000000054535,0.575520452695356
11100.0000000229,270.437638902447,1.00000000055889,0.574589226852602
11200.0000000232,274.115734639641,1.00000000052062,0.574170511430228
11300.0000000236,277.644787050622,1.000000000545,0.574467131122328
11400.0000000239,281.022338887197,1.0000000005141,0.573592352383666
11500.0000000243,284.264104352447,1.00000000051639,0.572801895991041
11600.0000000247,287.347804572861,1.00000000051658,0.573446734985785
11700.000000025,290.29462010534,1.00000000050879,0.572270421031517
11800.0000000254,293.093283734547,1.00000000048275,0.572134074416876
11900.0000000258,295.741326698219,1.00000000049683,0.572092921757788
12000.0000000261,298.256274056947,1.00000000049008,0.570411649729202
12100.0000000265,300.618204813196,1.00000000049721,0.570815449393331
12200.0000000269,302.844321200494,1.00000000046664,0.570849079063233
12300.0000000272,304.932392221337,1.00000000047077,0.569434758166371
12400.0000000276,306.874089855923,1.00000000046121,0.569675780214861
12500.0000000279,308.689374775694,1.00000000045571,0.569330650121654
12600.0000000283,310.362642352385,1.00000000043993,0.569773064806697
12700.0000000287,311.907059918516,1.00000000045368,0.56890728281196
12800.000000029,313.324068472643,1.00000000043787,0.566648523429688
12900.0000000294,314.604363837997,1.00000000043656,0.567489968195322
13000.0000000298,315.767933769158,1.00000000043319,0.569969615566024
13100.0000000301,316.807126823378,1.00000000043227,0.568663171921294
13200.0000000305,317.726751509807,1.00000000041955,0.565433377584636
13300.0000000309,318.529367915486,1.00000000041175,0.564207249134679
13400.0000000312,319.210071169072,1.00000000041122,0.568152339535916
13500.0000000316,319.790192792644,1.00000000042239,0.570540362607693
13600.0000000319,320.265607050227,1.00000000042975,0.566772402470006
13700.0000000323,320.634367616303,1.00000000039045,0.561087504317096
13800.0000000327,320.897716713147,1.00000000037015,0.56104640192497
13900.000000033,321.056999995419,1.00000000041148,0.569794180927734
14000.0000000334,321.138792003975,1.00000000043245,0.571960588401064
14100.0000000338,321.139222109765,1.00000000040676,0.564103306196263
14200.0000000341,321.047100339586,1.00000000036997,0.555355053726831
14300.0000000345,320.861968759291,1.00000000037698,0.556630704237023
14400.0000000349,320.592266550413,1.00000000040456,0.569572258542699
14500.0000000352,320.266039833705,1.00000000043047,0.573814474014812
14600.0000000356,319.885387110329,1.00000000041155,0.564069469674265
14700.0000000359,319.431125282234,1.00000000035931,0.551115333845604
14800.0000000363,318.896220135405,1.0000000003427,0.546584575680956
14900.0000000367,318.286275742591,1.00000000039399,0.562917137535057
15000.000000037,317.635823805329,1.00000000047229,0.576847679097564
15100.0000000374,316.95786761643,1.00000000045234,0.569012003581045
15200.0000000378,316.233986939127,1.00000000038981,0.552027352618063
15300.0000000381,315.448557712122,1.00000000030992,0.535987280460819
15400.0000000385,314.58898216364,1.00000000034178,0.543689201584193
15500.0000000389,313.688658506688,1.00000000044656,0.569392042364293
15600.0000000392,312.775433973061,1.00000000049698,0.579524408054177
15700.0000000396,311.850997299823,1.00000000044606,0.563940936581903
15800.0000000399,310.895917747044,1.00000000036504,0.540070012762607
15900.0000000403,309.882605057288,1.00000000030332,0.524100844028979
16000.0000000407,308.813719260632,1.00000000032847,0.53545145888776
16100.000000041,307.717311568507,1.00000000046824,0.568208968027411
16200.0000000414,306.621228363257,1.0000000005294,0.580779636705403
16300.0000000418,305.534517252013,1.00000000048685,0.566432935136459
16400.0000000418,304.431840490796,1.00000000038168,0.537348394407115
16500.0000000404,303.288768577862,1.00000000029055,0.514443064031192
16600.0000000389,302.095782254368,1.00000000029838,0.515728762770952
16700.0000000375,300.871874072498,1.00000000042568,0.550751292481463
16800.000000036,299.653514707334,1.00000000054625,0.579617812146417
16900.0000000346,298.452931293633,1.00000000054123,0.576994815885008
17000.0000000331,297.26243358923,1.00000000045703,0.550532691048099
17100.0000000317,296.057095701519,1.00000000033859,0.518832163440755
17200.0000000302,294.814102297293,1.00000000027901,0.501542340711253
17300.0000000287,293.537246666219,1.00000000032639,0.510542911805438
17400.0000000273,292.243399556127,1.00000000044667,0.549503432029851
17500.0000000258,290.961418198545,1.00000000056552,0.580167357264509
17600.0000000244,289.705535696906,1.00000000056619,0.577212487565702
17700.0000000229,288.463782532932,1.00000000046042,0.548352089678593
17800.0000000215,287.2184020124,1.00000000036154,0.516288139783642
17900.00000002,285.949721237453,1.00000000029755,0.496532142915947
18000.0000000186,284.653629526804,1.00000000030084,0.49795711520398
18100.0000000171,283.342779277624,1.00000000037795,0.525603896975174
18200.0000000156,282.035566107854,1.00000000050789,0.564139671044942
18300.0000000142,280.751069749515,1.00000000058603,0.579236484767371
18400.0000000127,279.490004893964,1.0000000005374,0.563938474363376
18500.0000000113,278.239667337651,1.00000000044698,0.532822670665953
18600.0000000098,276.986740394452,1.00000000035243,0.504336886626757
18700.0000000084,275.717342809394,1.00000000029772,0.492666239816825
18800.0000000069,274.433700741438,1.00000000032013,0.498097849792394
18900.0000000055,273.14174029129,1.0000000003963,0.518817365867323
19000.000000004,271.855085097607,1.00000000048331,0.551255910544185
19100.0000000026,270.586957560724,1.00000000056126,0.570082738259559
19200.0000000011,269.339506899611,1.00000000055441,0.563648917468509
19299.9999999996,268.107495547824,1.00000000048805,0.538104942594795
19399.9999999982,266.880876141847,1.00000000039691,0.510572008716393
19499.9999999967,265.649883852496,1.00000000034048,0.496460780818615
19599.9999999953,264.413757215087,1.00000000033127,0.495970650463758
19699.9999999938,263.171336619079,1.00000000034742,0.502903600659323
19799.9999999924,261.929727565078,1.0000000004076,0.518671644238742
19899.9999999909,260.69633077325,1.0000000004809,0.54085468496903
19999.9999999895,259.476884846657,1.00000000053778,0.557933459929103
20099.999999988,258.274278861123,1.00000000051584,0.552895405913969
20199.9999999865,257.085001332627,1.00000000049513,0.535913072023036
20299.9999999851,255.903763283382,1.00000000041572,0.515891761846608
20399.9999999836,254.726716227232,1.00000000037897,0.502995012782476
20499.9999999822,253.550108244654,1.00000000035612,0.499792708466003
20599.9999999807,252.375402237055,1.00000000035355,0.502760306016201
20699.9999999793,251.202333682352,1.00000000038785,0.509289772148435
20799.9999999778,250.034657742405,1.0000000004173,0.518499777351887
20899.9999999764,248.875814041675,1.00000000045062,0.528228880043472
20999.9999999749,247.727706961292,1.0000000004957,0.540137214042877
21099.9999999734,246.591755296325,1.00000000050883,0.541819314759523
21199.999999972,245.467278900085,1.00000000049792,0.53380203148447
21299.9999999705,244.351608853758,1.00000000044867,0.521468672008494
21399.9999999691,243.243667872779,1.00000000040865,0.511161335173228
21499.9999999676,242.141276898895,1.00000000037129,0.507371172995848
21599.9999999662,241.04518543259,1.00000000038592,0.510507472791803
21699.9999999647,239.954656926575,1.00000000037918,0.510587681061171
21799.9999999633,238.870182413489,1.00000000039609,0.509542996252046
21899.9999999618,237.792826239326,1.00000000039669,0.5109424349413
21999.9999999603,236.723214982982,1.00000000042205,0.516874200452394
22099.9999999589,235.66272192165,1.00000000045594,0.525084837332739
22199.9999999574,234.612038414951,1.00000000048246,0.531815701674921
22299.999999956,233.570319348621,1.00000000046147,0.532863003168585
22399.9999999545,232.537660076036,1.0000000004441,0.526925476304838
22499.9999999531,231.513195007467,1.00000000043425,0.520068178239197
22599.9999999516,230.497028887711,1.00000000041518,0.520387295946166
22699.9999999502,229.489276922154,1.00000000038655,0.520509939009124
22799.9999999487,228.489815728399,1.00000000037617,0.519026774308406
22899.9999999473,227.498825751969,1.0000000003721,0.514505668441636
22999.9999999458,226.51542192921,1.00000000035968,0.506107547440625
23099.9999999443,225.540354689889,1.0000000003789,0.503439725951028
23199.9999999429,224.573832855371,1.00000000041315,0.504316405935548
23299.9999999414,223.615847442838,1.00000000042722,0.513579641554854
23399.99999994,222.666384030206,1.00000000046381,0.519598876620662
23499.9999999385,221.725050752767,1.0000000004561,0.528308892938155
23599.9999999371,220.791377512341,1.00000000044092,0.533493008616719
23699.9999999356,219.865983931862,1.00000000041385,0.527934794986751
23799.9999999342,218.948641245382,1.00000000044073,0.524590936423306
23899.9999999327,218.039599599126,1.00000000041376,0.527827018023238
23999.9999999312,217.138772079441,1.00000000042982,0.533722502537303
24099.9999999298,216.246794962702,1.00000000042423,0.528917163968215
24199.9999999283,215.36393073563,1.00000000039412,0.521546648503008
24299.9999999269,214.490809719426,1.00000000035878,0.505843684453654
24399.9999999254,213.628390265733,1.00000000032233,0.493219775810277
24499.999999924,212.776541195651,1.00000000035383,0.490056896021897
24599.9999999225,211.934653301222,1.00000000039803,0.498343657111141
24699.9999999211,211.101531377773,1.00000000045009,0.507752432691824
24799.9999999196,210.275435995717,1.00000000049275,0.518778274857612
24899.9999999181,209.455067921553,1.00000000045947,0.523828005752207
24999.9999999167,208.641045741784,1.00000000044746,0.528183666604699
25099.9999999152,207.834120533464,1.00000000041522,0.529616136846851
25199.9999999138,207.035004344481,1.00000000040353,0.524154640989764
25299.9999999123,206.243065079617,1.00000000042953,0.528650516561788
25399.9999999109,205.457292784319,1.00000000045696,0.541214585877174
25499.9999999094,204.677329050615,1.00000000046963,0.54248881776622
25599.999999908,203.904588933251,1.00000000043321,0.531273760437932
25699.9999999065,203.140902722314,1.00000000039006,0.518298556127456
25799.9999999051,202.388778658748,1.00000000033154,0.499327105751074
25899.9999999036,201.650646843835,1.00000000029461,0.482224464879839
25999.9999999021,200.926221634436,1.00000000032579,0.478659535079337
26099.9999999007,200.213895359531,1.00000000039411,0.485925711273153
26199.9999998992,199.510441932691,1.00000000042916,0.499155233251116
26299.9999998978,198.813220249984,1.00000000046958,0.510903273230644
26399.9999998963,198.119319035338,1.00000000047333,0.515003926372603
26499.9999998949,197.429077332537,1.00000000045598,0.513491735770942
26599.9999998934,196.743558944135,1.00000000044874,0.520314765139875
26699.999999892,196.06372557055,1.00000000040827,0.527556350954513
26799.9999998905,195.3902692166,1.00000000042015,0.527342777581469
26899.999999889,194.721852819726,1.00000000044075,0.529581741647071
26999.9999998876,194.057120187586,1.00000000047831,0.537885370960225
27099.9999998861,193.395220006478,1.00000000048977,0.545185934105024
27199.9999998847,192.736732911484,1.00000000047482,0.538313585387883
27299.9999998832,192.084522943201,1.00000000045217,0.522263950817987
27399.9999998818,191.442175016671,1.00000000036962,0.508236946886146
27499.9999998803,190.812764721256,1.00000000032297,0.494547953574077
27599.9999998789,190.199064460806,1.00000000030625,0.480141716854545
27699.9999998774,189.600969239495,1.00000000033274,0.475583900008233
27799.9999998759,189.016193591033,1.00000000037688,0.479454234087343
27899.9999998745,188.441011901629,1.00000000040533,0.489900130510204
27999.999999873,187.871894659848,1.00000000044591,0.498871491110377
28099.9999998716,187.306226660439,1.00000000047173,0.508739273196429
28199.9999998701,186.741764273931,1.00000000047416,0.509376586883447
28299.9999998687,186.178983969866,1.00000000047842,0.509185875295657
28399.9999998672,185.618292798319,1.00000000045225,0.51565768679353
28499.9999998658,185.060649594577,1.0000000004125,0.524766481466148
28599.9999998643,184.506490394651,1.0000000004305,0.531759319015212
28699.9999998629,183.954851616378,1.00000000043245,0.531355114784124
28799.9999998614,183.405555577111,1.00000000046253,0.530408409110739
28899.9999998599,182.858290208217,1.00000000045101,0.533482600973205
