Time,AGPnorm,Energy,Entropy
0,0,1,-7.47466184223506e-19
99.9999999999986,0.00380380823865645,0.999999999997868,0.0121574980248918
199.999999999993,0.0106206332576243,1.00000000000068,0.0358137576249459
300,0.0224161409247275,0.999999999997524,0.0698802605681954
400.000000000022,0.0349978485088391,1.00000000000152,0.113239870172724
500.000000000045,0.0493201026232924,1.00000000000276,0.169766955041493
600.000000000068,0.0663499209906032,1.00000000006318,0.245178383312547
700.000000000091,0.0951386072545523,1.00000000030408,0.337226719707411
800.000000000113,0.269892470161797,1.00000000073081,0.421925614163434
900.000000000136,0.811180257421901,1.00000000107691,0.484461136938089
1000.00000000016,2.03087169744185,1.00000000134695,0.523731100378308
1100.0000000001,4.07473975985199,1.00000000146062,0.547498337135353
1200,6.92473159918584,1.0000000015749,0.55844876285636
1299.99999999991,10.4148375916746,1.0000000016523,0.562990933134729
1399.99999999982,14.305292557552,1.00000000164781,0.561819470456811
1499.99999999973,18.3096532898583,1.00000000156568,0.556439312407146
1599.99999999964,22.2228340080464,1.00000000143751,0.548568672573562
1699.99999999955,25.8249943078292,1.00000000130117,0.543848976572439
1799.99999999946,29.0277572495271,1.00000000116092,0.534052418090563
1899.99999999937,31.7087467374982,1.00000000114451,0.531863405157029
1999.99999999928,33.8604844784276,1.00000000105305,0.512241199270123
2099.99999999919,35.4658366552589,1.000000001041,0.530454852054388
2199.99999999909,36.5709140039531,1.00000000090455,0.492537521144313
2299.999999999,37.1571549324255,1.00000000093762,0.516671540112598
2399.99999999891,37.4509407081072,1.00000000102777,0.532262501224894
2499.99999999882,37.3547054645932,1.0000000005516,0.43728111200206
2599.99999999873,36.9291894456825,1.00000000098534,0.528399868524574
2699.99999999864,36.4985963950367,1.00000000115805,0.555119493206045
2799.99999999855,35.9062863114123,1.00000000050728,0.399897084715666
2899.99999999846,35.0603374809012,1.00000000069659,0.439375123057223
2999.99999999837,34.2302281969921,1.00000000132186,0.5639395403115
3099.99999999828,33.530335932182,1.00000000121963,0.543174743911606
3199.99999999819,32.780906492541,1.00000000049279,0.364338991402384
3299.99999999809,31.9039999505685,1.00000000049321,0.350139531715535
3399.999999998,31.0215208227754,1.00000000120137,0.505966234085208
3499.99999999791,30.2213023704497,1.00000000142766,0.55198549482514
3599.99999999782,29.5283858939612,1.00000000119123,0.548263898503695
3699.99999999773,28.843869648183,1.00000000062916,0.40712490731219
3799.99999999764,28.1359023584196,1.00000000039831,0.29827392871177
3899.99999999755,27.4592988515109,1.00000000071797,0.393857679328067
3999.99999999746,26.7979038480714,1.00000000108013,0.516817696606415
4099.99999999738,26.1520646504364,1.00000000105913,0.506015634201891
4199.99999999775,25.5367178035884,1.0000000012675,0.528859585079195
4299.99999999811,24.9662123456282,1.00000000122837,0.568563878988678
4399.99999999848,24.4259059916792,1.00000000071463,0.47234208030064
4499.99999999884,23.9216459996567,1.00000000035348,0.325881220076091
4599.9999999992,23.5144088556147,1.00000000052322,0.313765923468018
4699.99999999957,23.1856747622056,1.00000000082594,0.416945430063651
4799.99999999993,22.8448303869202,1.00000000112831,0.506356337757377
4900.00000000029,22.4599274470558,1.00000000114117,0.547928399808528
5000.00000000066,22.076698330066,1.00000000072107,0.498533920029685
5100.00000000102,21.7105784278783,1.00000000088102,0.470643703106006
5200.00000000139,21.325914805963,1.00000000130347,0.511587563538479
5300.00000000175,20.9283315581682,1.00000000140066,0.562409328608221
5400.00000000211,20.5454126870541,1.00000000115836,0.564148584333576
5500.00000000248,20.1845127957212,1.00000000068511,0.476003973863061
5600.00000000284,19.8863144354287,1.00000000039257,0.359926894033322
5700.00000000321,19.7215974513209,1.00000000038375,0.308464888020967
5800.00000000357,19.7008113784628,1.00000000066403,0.347490760981473
5900.00000000393,19.7257676660651,1.00000000098715,0.440039207003218
6000.0000000043,19.7126794719963,1.00000000108981,0.513138090655528
6100.00000000466,19.651324278076,1.00000000100476,0.523653586384899
6200.00000000502,19.5446309522944,1.00000000098796,0.521348274818175
6300.00000000539,19.3880954747293,1.00000000103878,0.546176834134874
6400.00000000575,19.1992494508595,1.00000000094362,0.537971018821366
6500.00000000612,19.0150976275995,1.0000000008092,0.517023186767777
6600.00000000648,18.8439476756007,1.00000000076655,0.510178669879741
6700.00000000684,18.6722420550623,1.00000000083194,0.523285471932093
6800.00000000721,18.4858650071552,1.00000000087949,0.51799433603507
6900.00000000757,18.2744594491133,1.00000000108726,0.531053942758027
7000.00000000793,18.0383515702883,1.00000000127419,0.544283884166696
7100.0000000083,17.7915241043969,1.00000000129687,0.572801538832061
7200.00000000866,17.5489153909576,1.00000000110679,0.571970354518772
7300.00000000903,17.3156756342463,1.00000000079493,0.514982220857182
7400.00000000939,17.1202666104009,1.00000000047305,0.426622494515079
7500.00000000975,17.0242543821706,1.00000000041297,0.351470259206383
7600.00000001012,17.0844802799662,1.00000000041567,0.325861797215725
7700.00000001048,17.308478437057,1.00000000058631,0.342591484462931
7800.00000001084,17.625470015678,1.00000000084128,0.405342338255027
7900.00000001121,17.9460911722694,1.0000000009644,0.46491837018812
8000.00000001157,18.2055147877387,1.00000000111628,0.512886975204274
8100.00000001194,18.3962675109114,1.00000000098455,0.537103032106785
8200.0000000123,18.537244317447,1.0000000009003,0.5437025998301
8300.00000001266,18.6286900768432,1.00000000093584,0.563702963189172
8400.00000001303,18.6639565893486,1.00000000098217,0.579484660550198
8500.00000001339,18.6550245210698,1.00000000089037,0.56407555587955
8600.00000001376,18.6206355253923,1.00000000096,0.553222461653081
8700.00000001412,18.5639502680913,1.00000000098471,0.547043093373749
8800.00000001448,18.4843235774853,1.00000000107607,0.55138966600891
8900.00000001485,18.3857877024429,1.00000000089868,0.545991990052194
9000.00000001521,18.294105162678,1.00000000075059,0.535989089927274
9100.00000001557,18.2200185872514,1.00000000081444,0.528086491182804
9200.00000001594,18.1463048567054,1.00000000098941,0.532065722049861
9300.0000000163,18.0647359608316,1.00000000093364,0.537576301040117
9400.00000001667,17.9823866735992,1.00000000087228,0.539622514760352
9500.00000001703,17.901357740084,1.00000000091228,0.543672392381706
9600.00000001739,17.8145677209984,1.0000000009275,0.548194877967734
9700.00000001776,17.7113974149276,1.00000000102813,0.558271840186725
9800.00000001812,17.59724768212,1.00000000091305,0.572292465431072
9900.00000001848,17.4790446808183,1.00000000084937,0.575678858222196
10000.0000000188,17.3635937088548,1.00000000073916,0.565909014697111
10100.0000000192,17.2450549899578,1.00000000091268,0.573748229823593
10200.0000000196,17.115768135767,1.00000000101117,0.578393171631916
10300.0000000199,16.974729059426,1.00000000098348,0.578355689763527
10400.0000000203,16.8257195095589,1.00000000120602,0.591600948451866
10500.0000000207,16.6763454160602,1.0000000013281,0.59407394582067
10600.000000021,16.5346535556348,1.00000000131831,0.596539170599789
10700.0000000214,16.403452234067,1.00000000131392,0.599500660560196
10800.0000000218,16.2761103871027,1.00000000109121,0.588221266010514
10900.0000000221,16.1408987500441,1.00000000084474,0.554355706030867
11000.0000000225,15.9981602042064,1.00000000063045,0.501600186954815
11100.0000000229,15.8713091417701,1.0000000004552,0.440722210141431
11200.0000000232,15.8039557874261,1.00000000041411,0.389073369408229
11300.0000000236,15.8436894613057,1.00000000039832,0.349881269505257
11400.0000000239,16.0335209571684,1.0000000003971,0.340268161870572
11500.0000000243,16.3765373891604,1.00000000056491,0.353873029725231
11600.0000000247,16.8487519171964,1.00000000066218,0.375318582384111
11700.000000025,17.3927111146021,1.00000000088186,0.409951818671923
11800.0000000254,17.9390826735949,1.00000000101837,0.450517432278993
11900.0000000258,18.4557010800477,1.00000000103409,0.480235773591756
12000.0000000261,18.9143669653022,1.00000000109899,0.511179283294965
12100.0000000265,19.3096578371527,1.00000000106868,0.534852815168435
12200.0000000269,19.65317032618,1.00000000094739,0.540446847452398
12300.0000000272,19.9480572294761,1.00000000102877,0.548944886699539
12400.0000000276,20.1916475207811,1.0000000010601,0.576035156118923
12500.0000000279,20.3872672442281,1.00000000099419,0.581604616511451
12600.0000000283,20.5423566990074,1.00000000106114,0.580819861459243
12700.0000000287,20.6573115295255,1.00000000098506,0.582907617453057
12800.000000029,20.7419372332346,1.0000000009674,0.589855469485976
12900.0000000294,20.7930210335503,1.00000000109994,0.602288536296315
13000.0000000298,20.8112967196457,1.00000000097777,0.593506998496785
13100.0000000301,20.8131772438174,1.00000000091947,0.573521916726045
13200.0000000305,20.8008533949237,1.0000000010337,0.564461441287718
13300.0000000309,20.7706722325843,1.0000000009363,0.565254095679583
13400.0000000312,20.7358247913872,1.00000000090197,0.557765458607572
13500.0000000316,20.6948128549438,1.00000000100668,0.56967231527188
13600.0000000319,20.6396848833051,1.00000000100841,0.570579313945538
13700.0000000323,20.5739252571975,1.00000000096022,0.58370668429234
13800.0000000327,20.4987413081405,1.00000000097502,0.578357096163476
13900.000000033,20.415027538334,1.00000000099282,0.577308115781115
14000.0000000334,20.3242593076864,1.00000000097158,0.581673454750355
14100.0000000338,20.2296164301049,1.00000000092317,0.584083913834919
14200.0000000341,20.1360871112011,1.00000000091959,0.568912675638144
14300.0000000345,20.0491263653194,1.0000000007907,0.548913701709965
14400.0000000349,19.970473536041,1.00000000093833,0.544474865429474
14500.0000000352,19.8911061591523,1.00000000101692,0.551914505689035
14600.0000000356,19.81094920082,1.00000000098865,0.558542776269915
14700.0000000359,19.7288394807049,1.00000000096005,0.558984147790197
14800.0000000363,19.6406173488694,1.00000000103648,0.566359097066098
14900.0000000367,19.5529017866013,1.00000000088356,0.56796560463909
15000.000000037,19.4741695667579,1.00000000084454,0.563767464398639
15100.0000000374,19.407054961776,1.00000000086488,0.559163972622282
15200.0000000378,19.3437619053593,1.00000000092483,0.555585961449834
15300.0000000381,19.2850908654189,1.00000000086747,0.557601493003799
15400.0000000385,19.2376187057782,1.00000000083449,0.539058811099014
15500.0000000389,19.1948989681463,1.00000000100035,0.531815911173411
15600.0000000392,19.1479442169944,1.00000000098019,0.534171362948132
15700.0000000396,19.1035770317079,1.00000000086582,0.54166261783024
15800.0000000399,19.0678585155935,1.00000000089025,0.555547640137969
15900.0000000403,19.0316498549247,1.00000000096132,0.576858942680088
16000.0000000407,18.9924988407426,1.00000000096834,0.588572846787574
16100.000000041,18.9505903032244,1.00000000100404,0.587971637306843
16200.0000000414,18.9014176806541,1.0000000009791,0.57154375777828
16300.0000000418,18.84591703087,1.00000000102298,0.565645306685213
16400.0000000418,18.7942568985262,1.00000000081055,0.565865664417377
16500.0000000404,18.7490084354474,1.00000000091293,0.580077151578092
16600.0000000389,18.7002318963684,1.00000000103323,0.586753719330846
16700.0000000375,18.6484076349291,1.00000000091369,0.597226808789232
16800.000000036,18.5969219301518,1.00000000094919,0.593119814400337
16900.0000000346,18.5394552452794,1.00000000102311,0.605755958528292
17000.0000000331,18.4744926579809,1.00000000099242,0.605080188508114
17100.0000000317,18.4070828721673,1.0000000009791,0.601998253525738
17200.0000000302,18.3368501424307,1.00000000101832,0.602983756384258
17300.0000000287,18.2622787654725,1.00000000103927,0.612329805586608
17400.0000000273,18.1886903141224,1.00000000089002,0.605254863388094
17500.0000000258,18.1198308393906,1.000000000904,0.597266745740368
17600.0000000244,18.0512854467014,1.00000000104907,0.597151084627478
17700.0000000229,17.9790960229109,1.00000000101023,0.588415202316313
17800.0000000215,17.905560431848,1.00000000098286,0.589614586270709
17900.00000002,17.8346276624603,1.00000000088415,0.602449888760099
18000.0000000186,17.764743844627,1.00000000091782,0.607970059666252
18100.0000000171,17.6931525113298,1.0000000010246,0.602994182735353
18200.0000000156,17.6230001089236,1.00000000083434,0.592783807331039
18300.0000000142,17.5555406927711,1.00000000092667,0.600512637821695
18400.0000000127,17.485226191792,1.00000000096591,0.589170047976503
18500.0000000113,17.4109238502391,1.00000000093163,0.596975825253534
18600.0000000098,17.3353038676077,1.00000000105475,0.594991937658629
18700.0000000084,17.2579587989129,1.00000000096231,0.599587171852345
18800.0000000069,17.1791952715377,1.0000000009985,0.602493515877125
18900.0000000055,17.0980315941858,1.00000000101888,0.617486675059851
19000.000000004,17.0140004011987,1.00000000104256,0.622153372352262
19100.0000000026,16.928909709896,1.00000000099335,0.620566481841954
19200.0000000011,16.8451843029161,1.00000000083763,0.601309915797314
19299.9999999996,16.7628909453487,1.00000000098049,0.617189913049282
19399.9999999982,16.6784870605315,1.00000000118083,0.625084619283273
19499.9999999967,16.5936377022095,1.00000000104659,0.623770923251294
19599.9999999953,16.5098748643316,1.00000000096931,0.601768103877428
19699.9999999938,16.4266051008455,1.00000000091731,0.589597362395755
19799.9999999924,16.3441183938642,1.00000000094863,0.609249975474518
19899.9999999909,16.2625537510282,1.00000000090068,0.620075273840699
19999.9999999895,16.1819068453368,1.00000000084014,0.608672988699536
20099.999999988,16.1024272581329,1.00000000083065,0.60134750324256
20199.9999999865,16.0246514694704,1.00000000090168,0.610285403790003
20299.9999999851,15.9499415210069,1.00000000095571,0.617968477531065
20399.9999999836,15.8798629637955,1.00000000102093,0.604706440608798
20499.9999999822,15.8168738243898,1.00000000103965,0.615396065742099
20599.9999999807,15.7646048456422,1.00000000113917,0.623274148492672
20699.9999999793,15.7256275125722,1.00000000118301,0.624065321743111
20799.9999999778,15.7083233411252,1.00000000118005,0.632408306007282
20899.9999999764,15.7092880594835,1.00000000125663,0.637548364187244
20999.9999999749,15.7437931545075,1.00000000129529,0.637094451782237
21099.9999999734,15.8009471275101,1.00000000138178,0.63741579637817
21199.999999972,15.8974874484493,1.00000000142797,0.626284772885209
21299.9999999705,16.0127348434211,1.00000000149252,0.615244282538027
21399.9999999691,16.1611883380346,1.00000000130989,0.603724655665034
21499.9999999676,16.3171786661842,1.00000000132507,0.593435716901784
21599.9999999662,16.4758257724184,1.0000000012228,0.585698588096312
21699.9999999647,16.6112639335619,1.0000000010835,0.575657917808376
21799.9999999633,16.711000059761,1.00000000097921,0.558959975299597
21899.9999999618,16.7667461964341,1.00000000086287,0.530358472615531
21999.9999999603,16.7733809571535,1.00000000072688,0.504013940854596
22099.9999999589,16.7409703682256,1.00000000070104,0.472152479018276
22199.9999999574,16.6832682500862,1.00000000057552,0.44370479617609
22299.999999956,16.6191740415835,1.00000000051012,0.417690195578818
22399.9999999545,16.5803379840568,1.00000000047431,0.393396861578565
22499.9999999531,16.5906570501661,1.00000000043734,0.374261386128178
22599.9999999516,16.6803270467632,1.00000000041713,0.357949276385214
22699.9999999502,16.8796409588517,1.0000000004738,0.347345944258363
22799.9999999487,17.1938709775266,1.00000000044992,0.350042681559025
22899.9999999473,17.6551207940222,1.00000000056482,0.355146489469988
22999.9999999458,18.2332067241271,1.00000000060441,0.365823714270754
23099.9999999443,18.9447317903578,1.00000000075593,0.374961527679339
23199.9999999429,19.7443634881711,1.00000000076745,0.391640527546044
23299.9999999414,20.6180951078209,1.0000000008911,0.402520926178115
23399.99999994,21.5370582837624,1.00000000100514,0.423126008263999
23499.9999999385,22.4537329851854,1.00000000100801,0.438543070371621
23599.9999999371,23.387991087916,1.00000000109982,0.452144879397912
23699.9999999356,24.2738544544207,1.00000000110267,0.474404112903355
23799.9999999342,25.1547997729091,1.00000000107879,0.485038549921324
23899.9999999327,25.9740820797395,1.00000000120525,0.493737164674396
23999.9999999312,26.7535220055448,1.00000000109298,0.507195917277889
24099.9999999298,27.4898985868152,1.00000000111668,0.519192276222321
24199.9999999283,28.1730823063906,1.00000000121022,0.524328168474373
24299.9999999269,28.8162709213839,1.00000000122286,0.539569934598816
24399.9999999254,29.4047196498297,1.00000000106116,0.548821199347055
24499.999999924,29.9727096182034,1.00000000108511,0.557641017421689
24599.9999999225,30.4913749099695,1.00000000102183,0.56436586316596
24699.9999999211,30.9781195200451,1.00000000104308,0.571592249113493
24799.9999999196,31.4234748602213,1.00000000100048,0.578263363023972
24899.9999999181,31.8305667006422,1.0000000011733,0.598120854614661
24999.9999999167,32.2082496581623,1.00000000109352,0.605343920335752
25099.9999999152,32.5464110049054,1.0000000010838,0.595915424322361
25199.9999999138,32.8595596610753,1.00000000111469,0.601667434401354
25299.9999999123,33.1212388049752,1.00000000112998,0.62246693230043
25399.9999999109,33.3514450234473,1.00000000114359,0.632604908192826
25499.9999999094,33.5507978127808,1.00000000102561,0.621506514990526
25599.999999908,33.7356675778674,1.00000000102297,0.61177462078627
25699.9999999065,33.8963628711393,1.00000000111245,0.615260158324056
25799.9999999051,34.0258619349566,1.00000000116255,0.619406825498583
25899.9999999036,34.1253103044011,1.00000000112731,0.632986685687348
25999.9999999021,34.1953718048143,1.00000000107006,0.628228663465578
26099.9999999007,34.2601087736312,1.00000000099658,0.617579095730434
26199.9999998992,34.3133146439268,1.00000000097642,0.602421824791597
26299.9999998978,34.3606601988604,1.00000000123262,0.600067433659525
26399.9999998963,34.3873671781124,1.00000000116013,0.618122021376707
26499.9999998949,34.3937375061995,1.00000000123022,0.627788980561033
26599.9999998934,34.382482184002,1.00000000110402,0.624998570677609
26699.999999892,34.362423999526,1.00000000100979,0.614206364460754
26799.9999998905,34.3416149540194,1.00000000095068,0.611179710184638
26899.999999889,34.3155221232352,1.00000000098954,0.608940032663811
26999.9999998876,34.2854704631551,1.00000000105863,0.593616931758435
27099.9999998861,34.2471282860475,1.00000000105656,0.590944527694234
27199.9999998847,34.2043594089595,1.00000000105226,0.603603825818826
27299.9999998832,34.1524853647002,1.00000000106257,0.626589143264665
27399.9999998818,34.0924671892554,1.00000000102362,0.63157838364739
27499.9999998803,34.0301039774857,1.00000000097043,0.612996424132713
27599.9999998789,33.9707186447783,1.00000000092731,0.589483429946673
27699.9999998774,33.9155896504093,1.00000000103731,0.604911199401935
27799.9999998759,33.8511156259493,1.00000000122453,0.600822193164753
27899.9999998745,33.7761832023542,1.00000000124898,0.595717643041778
27999.999999873,33.69548934672,1.00000000103179,0.587128638661222
28099.9999998716,33.6162085136211,1.0000000008819,0.572378995807451
28199.9999998701,33.5378504678685,1.00000000103162,0.588725954941521
28299.9999998687,33.4564916595466,1.0000000010704,0.598646251120018
28399.9999998672,33.3695123598062,1.00000000117081,0.609998720316161
28499.9999998658,33.2783413299064,1.00000000110812,0.615100055718523
28599.9999998643,33.1902079089237,1.00000000084394,0.594805262028755
28699.9999998629,33.1061556781653,1.000000000985,0.59630405325842
28799.9999998614,33.0238897123109,1.00000000108723,0.608377002083665
28899.9999998599,32.9387762723543,1.00000000117567,0.607093540706221
28999.9999998585,32.8513227308726,1.0000000011461,0.594354755967245
29099.999999857,32.7687329604059,1.00000000094949,0.574827254848876
